Time (min)	Temperature (C)	Weight (mg)
5.56E-04	19.96906	10.95739
0.01666667	19.97564	10.95738
0.05	19.98236	10.9574
0.07916666	19.98442	10.95741
0.1083334	19.99197	10.95768
0.1416666	19.99742	10.95801
0.1708333	20.00508	10.95831
0.2	20.01251	10.95848
0.2333333	20.0302	10.95874
0.2625	20.0397	10.95902
0.2916666	20.04817	10.95929
0.325	20.05425	10.95956
0.3541666	20.05978	10.95977
0.3833334	20.04813	10.95996
0.4166666	20.05558	10.9601
0.4458333	20.06266	10.96017
0.475	20.07296	10.96024
0.5083333	20.08169	10.96034
0.5375	20.09587	10.96039
0.5666666	20.09616	10.96035
0.6	20.10734	10.96031
0.6291666	20.11762	10.96034
0.6583332	20.13123	10.96036
0.6916666	20.14351	10.96031
0.7208334	20.15809	10.96019
0.75	20.16924	10.96009
0.7833334	20.18758	10.96011
0.8125	20.20565	10.96018
0.8416668	20.21715	10.96014
0.875	20.23512	10.96017
0.9041666	20.25197	10.96012
0.9333332	20.27156	10.96006
0.9666668	20.29352	10.95991
0.9958332	20.31502	10.95994
1.025	20.33371	10.95998
1.058333	20.35628	10.96004
1.0875	20.37642	10.95989
1.116667	20.39981	10.95971
1.15	20.42942	10.95966
1.179167	20.45172	10.95975
1.208334	20.47514	10.95971
1.241667	20.5073	10.9596
1.270834	20.53086	10.95962
1.3	20.55802	10.95971
1.333334	20.58828	10.95978
1.3625	20.62161	10.95973
1.391667	20.64557	10.95971
1.425	20.67911	10.95964
1.454166	20.70933	10.95964
1.483334	20.73617	10.95964
1.516667	20.77287	10.95961
1.545834	20.80457	10.95955
1.575	20.83228	10.95954
1.608334	20.86934	10.95957
1.6375	20.89891	10.95964
1.666667	20.93237	10.95968
1.7	20.9692	10.95971
1.729166	21.00038	10.95968
1.758334	21.03195	10.95969
1.791667	21.07006	10.95964
1.820834	21.10587	10.95966
1.85	21.13556	10.95965
1.883334	21.17416	10.95969
1.9125	21.20912	10.95972
1.941666	21.24334	10.95973
1.975	21.28098	10.95967
2.004166	21.31988	10.95962
2.033333	21.36464	10.9596
2.066666	21.40287	10.95964
2.095833	21.42173	10.95955
2.125	21.45048	10.95945
2.158333	21.48876	10.95948
2.1875	21.52384	10.95966
2.216667	21.55727	10.95975
2.25	21.59346	10.95986
2.279167	21.62918	10.95978
2.308334	21.66211	10.95969
2.341667	21.69745	10.95952
2.370834	21.73082	10.95952
2.4	21.77077	10.95952
2.433334	21.8026	10.95956
2.4625	21.83701	10.95958
2.491667	21.86682	10.95957
2.525	21.904	10.95954
2.554166	21.93652	10.95954
2.583334	21.97035	10.95957
2.616667	22.00515	10.95949
2.645833	22.03958	10.9594
2.675	22.06968	10.9594
2.708334	22.10488	10.95952
2.7375	22.13604	10.95958
2.766666	22.16826	10.95956
2.8	22.20374	10.9596
2.829166	22.23422	10.95966
2.858334	22.26482	10.95965
2.891666	22.30069	10.9596
2.920833	22.33139	10.95954
2.95	22.36033	10.95948
2.983334	22.39318	10.95944
3.0125	22.42178	10.95952
3.041667	22.45344	10.95956
3.075	22.48862	10.95956
3.104166	22.5158	10.95957
3.133333	22.54543	10.95961
3.166667	22.58027	10.95966
3.195833	22.60971	10.95965
3.225	22.63942	10.95963
3.258333	22.67352	10.95956
3.2875	22.70504	10.9596
3.316666	22.73152	10.9596
3.35	22.768	10.95958
3.379166	22.79469	10.95958
3.408333	22.82029	10.95959
3.441666	22.85625	10.95958
3.470833	22.88363	10.95958
3.5	22.91238	10.95962
3.533333	22.9435	10.95958
3.5625	22.97288	10.95957
3.591667	23.00161	10.95958
3.625	23.0354	10.9596
3.654167	23.06385	10.95955
3.683334	23.09068	10.95953
3.716667	23.12375	10.95959
3.745834	23.15262	10.95959
3.775	23.18086	10.95957
3.808334	23.21028	10.95954
3.8375	23.23609	10.95953
3.866666	23.26651	10.95941
3.9	23.29856	10.95939
3.929166	23.32531	10.95947
3.958334	23.35197	10.9596
3.991666	23.3878	10.95963
4.020833	23.41457	10.9596
4.05	23.446	10.95955
4.083333	23.47484	10.95941
4.1125	23.50003	10.95924
4.141667	23.5364	10.95915
4.175	23.56344	10.95926
4.204166	23.59174	10.95941
4.233334	23.6199	10.95949
4.266667	23.65367	10.95954
4.295833	23.69795	10.95958
4.325	23.71604	10.95955
4.358334	23.74261	10.9596
4.3875	23.76652	10.95958
4.416666	23.79753	10.95952
4.45	23.8289	10.95945
4.479166	23.85817	10.95949
4.508333	23.88707	10.95952
4.541666	23.91774	10.95947
4.570833	23.94597	10.9594
4.6	23.97715	10.95945
4.633333	24.01014	10.95948
4.6625	24.03798	10.95948
4.691666	24.06614	10.95945
4.725	24.09874	10.95941
4.754166	24.12613	10.95928
4.783333	24.15327	10.95925
4.816666	24.18854	10.95927
4.845833	24.21784	10.95923
4.875	24.24373	10.95918
4.908333	24.27813	10.95933
4.9375	24.30798	10.95951
4.966667	24.33667	10.95959
5	24.36863	10.95952
5.029167	24.39439	10.95938
5.058334	24.42956	10.9593
5.091667	24.45877	10.95923
5.120834	24.49035	10.95923
5.15	24.51823	10.95928
5.183334	24.55174	10.95939
5.2125	24.57942	10.95944
5.241667	24.60951	10.9594
5.275	24.64247	10.9594
5.304168	24.67062	10.95941
5.333332	24.70036	10.95946
5.366668	24.7336	10.95946
5.395832	24.76439	10.95941
5.425	24.79138	10.95942
5.458332	24.82554	10.95947
5.4875	24.84948	10.95953
5.516668	24.88151	10.9595
5.55	24.91484	10.95941
5.579166	24.94306	10.95932
5.608334	24.9729	10.9592
5.641668	25.00564	10.95924
5.670832	25.03938	10.95929
5.7	25.08131	10.95929
5.733334	25.1146	10.95932
5.7625	25.14204	10.9594
5.791666	25.1557	10.95953
5.825	25.1873	10.95955
5.854166	25.2178	10.95953
5.883334	25.24694	10.95945
5.916666	25.28225	10.95935
5.945832	25.3109	10.95928
5.975	25.33976	10.95932
6.008334	25.37254	10.95927
6.0375	25.40206	10.95931
6.066666	25.43114	10.95932
6.1	25.46704	10.9594
6.129166	25.49445	10.9594
6.158332	25.52262	10.95942
6.191666	25.55567	10.95942
6.220832	25.59334	10.95938
6.25	25.6217	10.95935
6.283332	25.6566	10.95935
6.3125	25.68307	10.95933
6.341668	25.71417	10.95932
6.375	25.74323	10.9593
6.404166	25.77118	10.9593
6.433334	25.80619	10.95931
6.466666	25.83734	10.95935
6.495834	25.8666	10.95938
6.525	25.89576	10.95939
6.558334	25.9218	10.95937
6.5875	25.94875	10.95918
6.616668	25.98222	10.95898
6.65	26.01577	10.959
6.679168	26.0444	10.9592
6.708332	26.07422	10.95934
6.741668	26.11261	10.95939
6.770832	26.134	10.9594
6.8	26.16367	10.95939
6.833332	26.19403	10.95925
6.8625	26.22424	10.95906
6.891668	26.25241	10.95895
6.925	26.28572	10.95901
6.954166	26.31576	10.95922
6.983334	26.34685	10.95932
7.016668	26.3787	10.95935
7.045832	26.40837	10.95934
7.075	26.43781	10.95924
7.108334	26.4691	10.95923
7.1375	26.49957	10.95923
7.166666	26.52725	10.95924
7.2	26.57449	10.95911
7.229166	26.60544	10.9591
7.258334	26.63562	10.95913
7.291666	26.65471	10.95912
7.320832	26.68304	10.9591
7.35	26.7109	10.9592
7.383334	26.74865	10.95929
7.4125	26.77087	10.95929
7.441666	26.8007	10.95919
7.475	26.83338	10.95921
7.504166	26.86657	10.95923
7.533334	26.89404	10.95924
7.566666	26.926	10.95914
7.595834	26.9548	10.95912
7.625	27.00038	10.95914
7.658334	27.03457	10.95925
7.6875	27.06213	10.95931
7.716666	27.08749	10.95929
7.75	27.10769	10.9592
7.779166	27.13663	10.95911
7.808334	27.16492	10.95906
7.841666	27.19914	10.9591
7.870834	27.22965	10.95916
7.9	27.2566	10.95916
7.933334	27.2897	10.95913
7.9625	27.32096	10.95908
7.991668	27.34892	10.95895
8.025	27.3821	10.95889
8.054168	27.41105	10.95884
8.083332	27.44148	10.95884
8.116668	27.47578	10.9588
8.145832	27.50366	10.9589
8.175	27.53222	10.95907
8.208332	27.56577	10.9591
8.2375	27.59768	10.95907
8.266666	27.62652	10.95905
8.3	27.65848	10.95906
8.329166	27.68791	10.95904
8.358334	27.71704	10.95912
8.391666	27.74835	10.9591
8.420834	27.77832	10.95908
8.45	27.8065	10.95906
8.483334	27.8433	10.9591
8.5125	27.87216	10.95907
8.541666	27.90253	10.95906
8.575	27.93442	10.95906
8.604168	27.96368	10.95891
8.633332	27.99408	10.95887
8.666666	28.02604	10.95894
8.695832	28.07333	10.95909
8.725	28.09464	10.9591
8.758332	28.11618	10.95908
8.787499	28.146	10.95907
8.816666	28.17476	10.95896
8.85	28.2072	10.95888
8.879166	28.23581	10.95884
8.908332	28.2647	10.95897
8.941666	28.2989	10.95904
8.970834	28.327	10.95913
9	28.35778	10.95914
9.033332	28.38971	10.95914
9.0625	28.42896	10.95916
9.091668	28.46438	10.95911
9.125	28.48431	10.95905
9.154166	28.50992	10.95897
9.183334	28.54035	10.959
9.216668	28.57536	10.95896
9.245834	28.60011	10.95889
9.275	28.62705	10.95874
9.308334	28.65979	10.95862
9.3375	28.68917	10.95865
9.366668	28.71928	10.95874
9.4	28.75158	10.95884
9.429168	28.78027	10.95891
9.458332	28.81236	10.95886
9.491668	28.8591	10.9589
9.520832	28.89358	10.95893
9.55	28.91981	10.95902
9.583332	28.95318	10.959
9.6125	28.98014	10.95892
9.641666	29.00765	10.95886
9.675	29.02656	10.9589
9.704166	29.05684	10.95897
9.733334	29.08529	10.95907
9.766666	29.11798	10.95904
9.795834	29.14745	10.95901
9.825	29.17769	10.95901
9.858334	29.21104	10.95905
9.8875	29.2412	10.95904
9.916666	29.2672	10.95903
9.95	29.30215	10.95902
9.979168	29.33118	10.95904
10.00833	29.35932	10.95902
10.04167	29.39386	10.95896
10.07083	29.42257	10.95895
10.1	29.45116	10.95899
10.13333	29.48447	10.95904
10.1625	29.51416	10.95909
10.19167	29.54602	10.95906
10.225	29.57613	10.959
10.25417	29.60553	10.95896
10.28333	29.64758	10.95895
10.31667	29.67828	10.95891
10.34583	29.69522	10.9589
10.375	29.7231	10.95894
10.40833	29.75872	10.959
10.4375	29.78801	10.95898
10.46667	29.81657	10.95897
10.5	29.85105	10.95898
10.52916	29.87783	10.95902
10.55834	29.90967	10.95893
10.59167	29.9439	10.95879
10.62084	29.97102	10.95872
10.65	29.99912	10.95878
10.68333	30.03267	10.95886
10.7125	30.06165	10.95885
10.74167	30.09153	10.95878
10.775	30.12412	10.95869
10.80417	30.15704	10.95876
10.83333	30.1833	10.95884
10.86667	30.21981	10.9588
10.89583	30.24539	10.9586
10.925	30.27682	10.95845
10.95833	30.309	10.95851
10.9875	30.33756	10.95857
11.01666	30.36638	10.95849
11.05	30.39966	10.95839
11.07916	30.4292	10.95849
11.10834	30.45816	10.9587
11.14166	30.49287	10.95881
11.17084	30.52252	10.95876
11.2	30.55038	10.95869
11.23334	30.583	10.95864
11.2625	30.62069	10.95868
11.29166	30.65863	10.95868
11.325	30.69129	10.95859
11.35417	30.71154	10.9586
11.38333	30.74914	10.9587
11.41666	30.7814	10.95876
11.44583	30.80908	10.9586
11.475	30.82368	10.95846
11.50833	30.85476	10.95851
11.5375	30.8825	10.9586
11.56666	30.91158	10.95862
11.6	30.94497	10.95866
11.62916	30.97517	10.95874
11.65834	31.00366	10.95878
11.69166	31.03551	10.95877
11.72084	31.06705	10.95878
11.75	31.1047	10.95876
11.78334	31.1424	10.95862
11.8125	31.16532	10.95857
11.84167	31.18754	10.95849
11.875	31.21888	10.95856
11.90416	31.24825	10.95855
11.93333	31.27756	10.9586
11.96667	31.31234	10.95863
11.99584	31.34144	10.95874
12.025	31.37053	10.95873
12.05833	31.40331	10.95871
12.0875	31.43195	10.95865
12.11667	31.46202	10.95863
12.15	31.49688	10.95863
12.17917	31.52526	10.95864
12.20833	31.5542	10.95868
12.24167	31.59123	10.9587
12.27083	31.61928	10.95872
12.3	31.64601	10.95871
12.33333	31.67988	10.95869
12.3625	31.7094	10.95866
12.39166	31.73791	10.95872
12.425	31.77084	10.95874
12.45416	31.80156	10.95862
12.48334	31.82916	10.9585
12.51666	31.86345	10.95854
12.54584	31.89306	10.95868
12.575	31.92208	10.95876
12.60834	31.95418	10.95876
12.6375	31.98508	10.9588
12.66666	32.01433	10.95877
12.7	32.04793	10.95876
12.72917	32.07722	10.95877
12.75833	32.1063	10.95881
12.79166	32.14071	10.95875
12.82083	32.16874	10.95867
12.85	32.19782	10.95853
12.88333	32.24192	10.95836
12.9125	32.27509	10.95831
12.94167	32.29304	10.95846
12.975	32.3214	10.95852
13.00417	32.34792	10.95848
13.03334	32.3805	10.95845
13.06667	32.41203	10.95853
13.09584	32.4415	10.95848
13.125	32.47006	10.95842
13.15834	32.50868	10.95831
13.1875	32.54916	10.9583
13.21667	32.57614	10.95839
13.25	32.6072	10.95846
13.27916	32.61891	10.9585
13.30833	32.65041	10.9585
13.34167	32.68492	10.95853
13.37083	32.71355	10.9585
13.4	32.74321	10.95846
13.43333	32.77586	10.95844
13.4625	32.80338	10.95841
13.49167	32.8328	10.95841
13.525	32.86844	10.95842
13.55417	32.8944	10.9584
13.58333	32.92654	10.95837
13.61667	32.95813	10.95839
13.64583	32.98768	10.95843
13.675	33.02463	10.95843
13.70833	33.06735	10.95828
13.7375	33.09652	10.95814
13.76666	33.12384	10.95805
13.8	33.1425	10.95816
13.82916	33.17034	10.95832
13.85834	33.2005	10.9584
13.89166	33.233	10.9584
13.92084	33.26352	10.95841
13.95	33.29553	10.95848
13.98334	33.32709	10.95857
14.0125	33.36768	10.95851
14.04166	33.39547	10.95846
14.075	33.42762	10.95847
14.10417	33.45836	10.95854
14.13333	33.48632	10.9585
14.16666	33.51811	10.95845
14.19583	33.54782	10.95845
14.225	33.57461	10.9585
14.25833	33.60702	10.9584
14.2875	33.6205	10.95833
14.31667	33.64972	10.95826
14.35	33.68414	10.95822
14.37917	33.71596	10.9582
14.40834	33.74378	10.95824
14.44167	33.77534	10.95832
14.47084	33.80348	10.95837
14.5	33.8345	10.95839
14.53334	33.86529	10.95843
14.5625	33.89298	10.95846
14.59167	33.92618	10.95844
14.625	33.95734	10.95837
14.65416	33.98764	10.95838
14.68333	34.01572	10.95834
14.71667	34.04886	10.95831
14.74583	34.07778	10.95832
14.775	34.10735	10.95848
14.80833	34.14206	10.95852
14.8375	34.17095	10.9584
14.86667	34.20158	10.95828
14.9	34.2336	10.95834
14.92917	34.26496	10.95838
14.95833	34.2948	10.95827
14.99167	34.32838	10.95826
15.02083	34.35551	10.95829
15.05	34.3913	10.95831
15.08333	34.41732	10.95823
15.1125	34.44806	10.95825
15.14166	34.47791	10.9583
15.175	34.51178	10.95835
15.20416	34.54255	10.95836
15.23334	34.57024	10.95834
15.26666	34.60485	10.95836
15.29584	34.63348	10.95837
15.325	34.66145	10.95837
15.35834	34.69666	10.95834
15.3875	34.72224	10.95832
15.41666	34.75463	10.95834
15.45	34.7877	10.95833
15.47917	34.82209	10.95829
15.50833	34.8484	10.95826
15.54166	34.88123	10.9583
15.57083	34.91042	10.95832
15.6	34.93978	10.95831
15.63333	34.97458	10.95831
15.6625	35.00188	10.95836
15.69167	35.02989	10.95831
15.725	35.06306	10.95824
15.75417	35.0939	10.95827
15.78334	35.12241	10.95834
15.81667	35.15425	10.95839
15.84584	35.18525	10.95834
15.875	35.21597	10.95836
15.90834	35.25078	10.95839
15.9375	35.27667	10.95841
15.96667	35.30508	10.95844
16	35.33545	10.95846
16.02917	35.36791	10.9585
16.05833	35.39655	10.95845
16.09166	35.4456	10.95832
16.12083	35.464	10.95826
16.15	35.4885	10.95819
16.18333	35.52706	10.95808
16.2125	35.55326	10.95799
16.24167	35.5812	10.95803
16.275	35.6138	10.95819
16.30417	35.64162	10.95834
16.33334	35.66906	10.95846
16.36667	35.70437	10.95846
16.39584	35.73474	10.95838
16.425	35.76788	10.95834
16.45834	35.79727	10.95828
16.4875	35.8275	10.95819
16.51667	35.85406	10.95808
16.55	35.88802	10.95812
16.57916	35.91976	10.95818
16.60833	35.9461	10.95823
16.64167	35.97893	10.95824
16.67084	36.00852	10.95828
16.7	36.03637	10.95816
16.73333	36.07016	10.9581
16.7625	36.09972	10.9581
16.79166	36.12982	10.95824
16.825	36.15867	10.9583
16.85416	36.19083	10.95835
16.88333	36.22079	10.95835
16.91666	36.26468	10.9583
16.94583	36.29008	10.95825
16.975	36.31267	10.9582
17.00833	36.3461	10.95818
17.0375	36.3748	10.95812
17.06666	36.40213	10.95805
17.1	36.43555	10.95804
17.12917	36.47921	10.95808
17.15833	36.50996	10.95812
17.19166	36.53061	10.95805
17.22083	36.57037	10.95801
17.25	36.58629	10.95794
17.28333	36.61668	10.9579
17.3125	36.6455	10.958
17.34166	36.674	10.95808
17.375	36.70868	10.9581
17.40417	36.73562	10.95807
17.43333	36.76546	10.9581
17.46666	36.79716	10.95814
17.49583	36.82768	10.95816
17.525	36.87082	10.95808
17.55833	36.90674	10.95793
17.5875	36.93233	10.9579
17.61667	36.94762	10.958
17.65	36.98006	10.9581
17.67917	37.0126	10.95809
17.70834	37.0397	10.95815
17.74167	37.07334	10.95816
17.77084	37.10156	10.95822
17.8	37.13194	10.95825
17.83334	37.16455	10.9583
17.8625	37.1952	10.95824
17.89167	37.22186	10.95813
17.925	37.2538	10.95811
17.95416	37.2829	10.95818
17.98333	37.31159	10.9582
18.01667	37.35324	10.95812
18.04584	37.39143	10.95803
18.075	37.42211	10.95797
18.10833	37.45032	10.95803
18.1375	37.46581	10.95817
18.16666	37.49608	10.95828
18.2	37.52816	10.9583
18.22916	37.5562	10.95824
18.25833	37.58424	10.95821
18.29166	37.61748	10.95819
18.32083	37.6476	10.95815
18.35	37.6773	10.95812
18.38333	37.70882	10.95809
18.4125	37.74086	10.95815
18.44166	37.76848	10.95818
18.475	37.80192	10.95822
18.50417	37.83067	10.9582
18.53333	37.8606	10.95821
18.56666	37.89347	10.95826
18.59583	37.92323	10.95834
18.625	37.95316	10.95832
18.65833	37.98555	10.95825
18.6875	38.01572	10.95819
18.71666	38.04562	10.95819
18.75	38.07742	10.95821
18.77917	38.11022	10.95827
18.80833	38.13678	10.95831
18.84166	38.17187	10.95831
18.87083	38.19872	10.95826
18.9	38.22725	10.95826
18.93333	38.25914	10.95825
18.9625	38.28832	10.95825
18.99167	38.32144	10.95817
19.025	38.35363	10.95811
19.05417	38.38347	10.95807
19.08334	38.4112	10.95805
19.11667	38.44645	10.95805
19.14584	38.47556	10.95808
19.175	38.50446	10.95813
19.20834	38.53798	10.95818
19.2375	38.56785	10.95818
19.26667	38.5949	10.95818
19.3	38.6289	10.95817
19.32916	38.65625	10.95816
19.35833	38.6889	10.95813
19.39167	38.72202	10.95815
19.42084	38.74996	10.95808
19.45	38.78002	10.95805
19.48333	38.81182	10.95808
19.5125	38.83986	10.9582
19.54166	38.86865	10.95824
19.575	38.90414	10.95824
19.60416	38.93025	10.9582
19.63333	38.96059	10.95813
19.66666	38.9949	10.9581
19.69583	39.02402	10.95814
19.725	39.05225	10.95819
19.75833	39.08732	10.95811
19.7875	39.11736	10.95808
19.81666	39.14475	10.95811
19.85	39.17878	10.95814
19.87917	39.20679	10.95812
19.90833	39.23557	10.95805
19.94166	39.2701	10.95798
19.97083	39.2979	10.95793
20	39.32541	10.95797
20.03333	39.35984	10.95806
20.0625	39.38961	10.95816
20.09166	39.42324	10.95816
20.125	39.46881	10.95806
20.15417	39.48884	10.95796
20.18333	39.50915	10.95796
20.21666	39.54258	10.95798
20.24583	39.57188	10.95795
20.275	39.60076	10.95787
20.30833	39.64958	10.95782
20.3375	39.67783	10.95781
20.36667	39.70764	10.95784
20.4	39.74236	10.95792
20.42917	39.76828	10.95798
20.45834	39.79714	10.95802
20.49167	39.83041	10.95794
20.52084	39.85834	10.95786
20.55	39.88257	10.95778
20.58334	39.90529	10.95776
20.6125	39.93306	10.9578
20.64167	39.9643	10.95792
20.675	39.99576	10.95799
20.70416	40.02635	10.95794
20.73333	40.05152	10.95787
20.76667	40.08524	10.9577
20.79584	40.11461	10.9576
20.825	40.1434	10.95766
20.85833	40.17532	10.95782
20.8875	40.205	10.95792
20.91666	40.23677	10.95795
20.95	40.26706	10.95798
20.97916	40.29862	10.95792
21.00833	40.32753	10.95792
21.04166	40.36235	10.95786
21.07083	40.39224	10.9579
21.1	40.42133	10.95789
21.13333	40.45369	10.95794
21.1625	40.48567	10.95794
21.19166	40.51082	10.9578
21.225	40.54557	10.9577
21.25417	40.57239	10.95763
21.28333	40.60272	10.9577
21.31666	40.63855	10.95773
21.34583	40.66564	10.95786
21.375	40.69622	10.95794
21.40833	40.72729	10.95786
21.4375	40.76003	10.95776
21.46666	40.79054	10.95779
21.5	40.82216	10.95792
21.52917	40.8531	10.95792
21.55833	40.88206	10.95785
21.59166	40.91453	10.95779
21.62083	40.94409	10.95782
21.65	40.97119	10.95782
21.68333	41.00612	10.95785
21.7125	41.0408	10.95783
21.74167	41.08102	10.95776
21.775	41.11303	10.9578
21.80417	41.14289	10.95789
21.83334	41.17044	10.95796
21.86667	41.2037	10.95791
21.89584	41.23013	10.95787
21.925	41.25062	10.95788
21.95834	41.27638	10.958
21.9875	41.30526	10.95803
22.01667	41.33805	10.95795
22.05	41.36806	10.95794
22.07916	41.39672	10.95795
22.10834	41.42685	10.95795
22.14167	41.46316	10.95786
22.17084	41.49609	10.95787
22.2	41.51921	10.9579
22.23334	41.55243	10.95792
22.2625	41.58466	10.9579
22.29167	41.61163	10.95785
22.325	41.64421	10.95775
22.35416	41.6731	10.95763
22.38333	41.7047	10.95762
22.41667	41.73614	10.95765
22.44583	41.76594	10.9577
22.475	41.7948	10.95776
22.50833	41.82663	10.95782
22.5375	41.85362	10.95788
22.56666	41.88521	10.95792
22.6	41.91942	10.95793
22.62917	41.94719	10.95788
22.65833	41.97466	10.9578
22.69166	42.01022	10.9578
22.72083	42.0388	10.95782
22.75	42.06947	10.95786
22.78333	42.10874	10.95787
22.8125	42.13376	10.95784
22.84166	42.16026	10.95774
22.875	42.1922	10.95771
22.90417	42.22288	10.95776
22.93333	42.25467	10.95777
22.96666	42.28734	10.95762
22.99583	42.31446	10.95744
23.025	42.34409	10.95757
23.05833	42.37609	10.95772
23.0875	42.4068	10.95782
23.11667	42.44834	10.95785
23.15	42.4824	10.95788
23.17917	42.50338	10.95787
23.20834	42.52553	10.95779
23.24167	42.5584	10.95779
23.27084	42.58831	10.95781
23.3	42.61993	10.95781
23.33334	42.65483	10.95769
23.3625	42.67979	10.95759
23.39167	42.70636	10.95766
23.425	42.7402	10.95781
23.45416	42.76865	10.95788
23.48334	42.80701	10.95788
23.51667	42.83268	10.95789
23.54584	42.8638	10.95785
