"Time (min)"	"Temperature (°C)"	"Weight (mg)"
.001222222	23.80192	20.27698
.004166667	23.82828	20.27713
0.01250000	23.85306	20.27724
0.02083334	23.87264	20.27738
0.02916666	23.89788	20.27749
0.03750000	23.92320	20.27760
0.04583334	23.94572	20.27776
0.05416668	23.96389	20.27786
0.06250000	23.98754	20.27796
0.07083332	24.01299	20.27804
0.07916666	24.03293	20.27801
0.08750000	24.06098	20.27800
0.09583332	24.07814	20.27801
0.1041666	24.10615	20.27800
0.1125000	24.12366	20.27800
0.1208333	24.14851	20.27799
0.1291666	24.16792	20.27796
0.1375000	24.19182	20.27796
0.1458333	24.20924	20.27796
0.1541667	24.23383	20.27794
0.1625000	24.25752	20.27797
0.1708334	24.28094	20.27800
0.1791666	24.30314	20.27802
0.1875000	24.32092	20.27801
0.1958334	24.34027	20.27801
0.2041667	24.36453	20.27805
0.2125000	24.38675	20.27808
0.2208333	24.40826	20.27808
0.2291667	24.42832	20.27808
0.2375000	24.44865	20.27809
0.2458334	24.47054	20.27805
0.2541666	24.49184	20.27800
0.2625000	24.51514	20.27796
0.2708334	24.53864	20.27791
0.2791667	24.55602	20.27788
0.2875000	24.57958	20.27780
0.2958333	24.59949	20.27772
0.3041667	24.62291	20.27768
0.3125000	24.64821	20.27759
0.3208333	24.67017	20.27751
0.3291667	24.69115	20.27747
0.3375000	24.71766	20.27742
0.3458333	24.74052	20.27737
0.3541666	24.76204	20.27734
0.3625000	24.78994	20.27728
0.3708334	24.81694	20.27723
0.3791666	24.84149	20.27721
0.3875000	24.86405	20.27716
0.3958334	24.88580	20.27712
0.4041666	24.91316	20.27710
0.4125000	24.94310	20.27710
0.4208333	24.96987	20.27712
0.4291667	24.99558	20.27714
0.4375000	25.02366	20.27715
0.4458333	25.04887	20.27716
0.4541667	25.07936	20.27718
0.4625000	25.10904	20.27718
0.4708334	25.13633	20.27720
0.4791666	25.16560	20.27722
0.4875000	25.19908	20.27722
0.4958334	25.22848	20.27720
0.5041666	25.25707	20.27719
0.5125000	25.28843	20.27718
0.5208332	25.32100	20.27712
0.5291666	25.35475	20.27710
0.5375000	25.38640	20.27711
0.5458334	25.42053	20.27710
0.5541668	25.45242	20.27706
0.5625000	25.48895	20.27703
0.5708332	25.52436	20.27700
0.5791666	25.55766	20.27696
0.5875000	25.59000	20.27690
0.5958334	25.63108	20.27684
0.6041668	25.66645	20.27680
0.6125000	25.70577	20.27674
0.6208334	25.74292	20.27664
0.6291666	25.77888	20.27654
0.6375000	25.81706	20.27646
0.6458332	25.85574	20.27641
0.6541666	25.90016	20.27639
0.6625000	25.93692	20.27636
0.6708334	25.97957	20.27631
0.6791668	26.01784	20.27625
0.6875000	26.05981	20.27618
0.6958332	26.10252	20.27611
0.7041666	26.15237	20.27608
0.7125000	26.19213	20.27604
0.7208334	26.23552	20.27601
0.7291668	26.28104	20.27594
0.7375000	26.32612	20.27582
0.7458334	26.36910	20.27575
0.7541666	26.41658	20.27575
0.7625000	26.46303	20.27572
0.7708332	26.51428	20.27568
0.7791666	26.56295	20.27566
0.7875000	26.61130	20.27562
0.7958334	26.66014	20.27559
0.8041668	26.71032	20.27558
0.8125000	26.75712	20.27555
0.8208332	26.81056	20.27554
0.8291666	26.86142	20.27550
0.8375000	26.91094	20.27539
0.8458334	26.96692	20.27535
0.8541668	27.02025	20.27533
0.8625000	27.07334	20.27530
0.8708332	27.12782	20.27528
0.8791668	27.17810	20.27523
0.8875000	27.23380	20.27518
0.8958332	27.29146	20.27514
0.9041666	27.35065	20.27510
0.9125000	27.40444	20.27505
0.9208334	27.46220	20.27499
0.9291668	27.52382	20.27491
0.9375000	27.57757	20.27481
0.9458332	27.63475	20.27474
0.9541666	27.69567	20.27466
0.9625000	27.76323	20.27458
0.9708334	27.81794	20.27450
0.9791668	27.88188	20.27444
0.9875000	27.93541	20.27435
0.9958332	28.00343	20.27426
1.004167	28.06525	20.27416
1.012500	28.13279	20.27411
1.020833	28.19330	20.27409
1.029167	28.25951	20.27404
1.037500	28.32429	20.27394
1.045834	28.39046	20.27388
1.054167	28.45355	20.27384
1.062500	28.51996	20.27380
1.070833	28.58441	20.27376
1.079166	28.65742	20.27375
1.087500	28.72625	20.27377
1.095833	28.79346	20.27371
1.104166	28.85870	20.27366
1.112500	28.93263	20.27364
1.120833	28.99735	20.27364
1.129167	29.07504	20.27361
1.137500	29.13668	20.27356
1.145834	29.20804	20.27352
1.154167	29.27902	20.27348
1.162500	29.35310	20.27341
1.170834	29.42492	20.27334
1.179167	29.49532	20.27327
1.187500	29.57256	20.27322
1.195833	29.64502	20.27312
1.204166	29.71726	20.27302
1.212500	29.79061	20.27293
1.220833	29.86562	20.27288
1.229166	29.94215	20.27280
1.237500	30.02168	20.27270
1.245833	30.09679	20.27264
1.254167	30.16979	20.27261
1.262500	30.24731	20.27258
1.270834	30.32805	20.27254
1.279167	30.40450	20.27250
1.287500	30.48274	20.27251
1.295834	30.56374	20.27251
1.304167	30.64099	20.27241
1.312500	30.71725	20.27230
1.320833	30.79822	20.27222
1.329166	30.87798	20.27212
1.337500	30.96168	20.27203
1.345833	31.03858	20.27192
1.354166	31.11982	20.27183
1.362500	31.19667	20.27174
1.370833	31.28148	20.27162
1.379167	31.36033	20.27157
1.387500	31.44459	20.27158
1.395834	31.52785	20.27156
1.404167	31.61083	20.27153
1.412500	31.69410	20.27151
1.420834	31.77740	20.27148
1.429167	31.85888	20.27145
1.437500	31.94446	20.27140
1.445833	32.02748	20.27135
1.454166	32.11248	20.27131
1.462500	32.19444	20.27125
1.470833	32.28195	20.27117
1.479166	32.36546	20.27112
1.487500	32.44801	20.27105
1.495833	32.53779	20.27099
1.504167	32.62593	20.27096
1.512500	32.70818	20.27090
1.520834	32.79586	20.27083
1.529167	32.87835	20.27076
1.537500	32.96790	20.27068
1.545834	33.05612	20.27058
1.554167	33.14100	20.27049
1.562500	33.22689	20.27044
1.570833	33.32264	20.27037
1.579166	33.40672	20.27028
1.587500	33.49347	20.27016
1.595833	33.57975	20.27006
1.604166	33.67039	20.26995
1.612500	33.75508	20.26984
1.620833	33.84698	20.26972
1.629167	33.93345	20.26958
1.637500	34.02205	20.26950
1.645834	34.11330	20.26944
1.654167	34.20178	20.26932
1.662500	34.29334	20.26922
1.670834	34.38678	20.26911
1.679166	34.47136	20.26904
1.687500	34.56212	20.26895
1.695834	34.64902	20.26888
1.704166	34.74513	20.26885
1.712500	34.83442	20.26879
1.720833	34.92626	20.26870
1.729166	35.01802	20.26858
1.737500	35.10449	20.26853
1.745833	35.19170	20.26850
1.754167	35.28958	20.26846
1.762500	35.37698	20.26838
1.770834	35.46982	20.26832
1.779167	35.55855	20.26826
1.787500	35.65266	20.26818
1.795834	35.74320	20.26814
1.804166	35.83682	20.26810
1.812500	35.93019	20.26799
1.820834	36.01742	20.26791
1.829166	36.11039	20.26785
1.837500	36.20310	20.26776
1.845833	36.29188	20.26766
1.854166	36.38374	20.26758
1.862500	36.47613	20.26750
1.870833	36.56858	20.26740
1.879167	36.65998	20.26730
1.887500	36.75568	20.26720
1.895834	36.84710	20.26712
1.904167	36.93896	20.26699
1.912500	37.02976	20.26685
1.920834	37.12202	20.26674
1.929166	37.21350	20.26665
1.937500	37.30372	20.26653
1.945834	37.39697	20.26640
1.954166	37.49165	20.26627
1.962500	37.58700	20.26612
1.970833	37.67641	20.26595
1.979166	37.77128	20.26584
1.987500	37.85987	20.26576
1.995833	37.95274	20.26568
2.004166	38.04680	20.26560
2.012500	38.13952	20.26552
2.020833	38.23098	20.26551
2.029167	38.32239	20.26549
2.037500	38.41220	20.26543
2.045834	38.50544	20.26538
2.054166	38.60103	20.26534
2.062500	38.69070	20.26526
2.070834	38.78507	20.26516
2.079166	38.88000	20.26506
2.087500	38.96580	20.26498
2.095833	39.05876	20.26486
2.104167	39.14988	20.26472
2.112500	39.24656	20.26457
2.120834	39.33870	20.26447
2.129166	39.42992	20.26438
2.137500	39.52216	20.26428
2.145833	39.61899	20.26417
2.154167	39.70734	20.26408
2.162500	39.79937	20.26396
2.170834	39.89283	20.26386
2.179166	39.97706	20.26376
2.187500	40.07308	20.26361
2.195834	40.16567	20.26349
2.204166	40.25588	20.26338
2.212500	40.34976	20.26326
2.220833	40.44104	20.26313
2.229167	40.53027	20.26301
2.237500	40.62200	20.26289
2.245834	40.71270	20.26276
2.254166	40.80437	20.26262
2.262500	40.89540	20.26248
2.270833	40.99052	20.26236
2.279167	41.08189	20.26221
2.287500	41.17033	20.26207
2.295834	41.26296	20.26195
2.304166	41.35537	20.26183
2.312500	41.44370	20.26171
2.320834	41.53627	20.26157
2.329166	41.62420	20.26142
2.337500	41.71828	20.26128
2.345833	41.80615	20.26112
2.354167	41.89959	20.26098
2.362500	41.98833	20.26084
2.370834	42.07882	20.26069
2.379166	42.16650	20.26053
2.387500	42.25440	20.26039
2.395833	42.34962	20.26021
2.404167	42.43628	20.26001
2.412500	42.52472	20.25985
2.420834	42.61100	20.25966
2.429166	42.70639	20.25950
2.437500	42.79740	20.25937
2.445834	42.88416	20.25924
2.454166	42.97534	20.25909
2.462500	43.06767	20.25895
2.470833	43.15106	20.25882
2.479167	43.24128	20.25870
2.487500	43.32970	20.25864
2.495834	43.41587	20.25856
2.504166	43.50432	20.25849
2.512500	43.59879	20.25840
2.520833	43.68347	20.25831
2.529167	43.77050	20.25822
2.537500	43.85859	20.25813
2.545834	43.94607	20.25801
2.554166	44.03732	20.25789
2.562500	44.12688	20.25777
2.570834	44.21356	20.25763
2.579166	44.30096	20.25746
2.587500	44.38781	20.25734
2.595833	44.47710	20.25720
2.604167	44.56514	20.25703
2.612500	44.65606	20.25685
2.620834	44.73953	20.25666
2.629166	44.82914	20.25647
2.637500	44.91228	20.25628
2.645833	45.00019	20.25612
2.654167	45.08893	20.25598
2.662500	45.17546	20.25579
2.670834	45.26450	20.25560
2.679166	45.35098	20.25542
2.687500	45.43310	20.25526
2.695834	45.52119	20.25513
2.704166	45.60936	20.25503
2.712500	45.69532	20.25492
2.720833	45.78565	20.25478
2.729167	45.86947	20.25461
2.737500	45.95221	20.25441
2.745834	46.03563	20.25427
2.754166	46.12632	20.25410
2.762500	46.20777	20.25392
2.770833	46.29892	20.25372
2.779167	46.38470	20.25351
2.787500	46.47113	20.25328
2.795834	46.55361	20.25304
2.804166	46.64229	20.25278
2.812500	46.72724	20.25256
2.820834	46.81406	20.25239
2.829166	46.89569	20.25220
2.837500	46.97835	20.25204
2.845833	47.06832	20.25189
2.854167	47.15348	20.25175
2.862500	47.23613	20.25160
2.870834	47.31880	20.25144
2.879166	47.40113	20.25131
2.887500	47.48992	20.25124
2.895833	47.57220	20.25113
2.904167	47.66009	20.25095
2.912500	47.74406	20.25076
2.920834	47.82956	20.25059
2.929166	47.91270	20.25040
2.937500	47.99389	20.25020
2.945834	48.08274	20.24998
2.954166	48.16172	20.24978
2.962500	48.24328	20.24960
2.970833	48.33108	20.24942
2.979167	48.41394	20.24926
2.987500	48.49869	20.24910
2.995834	48.58584	20.24896
3.004166	48.66622	20.24880
3.012500	48.74792	20.24861
3.020833	48.83150	20.24844
3.029167	48.91238	20.24829
3.037500	48.99980	20.24816
3.045834	49.08035	20.24797
3.054166	49.16626	20.24778
3.062500	49.24576	20.24760
3.070834	49.32821	20.24743
3.079166	49.41487	20.24724
3.087500	49.49356	20.24703
3.095833	49.57947	20.24685
3.104167	49.65769	20.24669
3.112500	49.73898	20.24649
3.120834	49.82522	20.24628
3.129166	49.90789	20.24608
3.137500	49.98917	20.24587
3.145833	50.07307	20.24566
3.154167	50.15262	20.24547
3.162500	50.23384	20.24528
3.170834	50.31974	20.24508
3.179166	50.40058	20.24487
3.187500	50.48460	20.24464
3.195834	50.56239	20.24444
3.204167	50.64933	20.24423
3.212500	50.72658	20.24398
3.220833	50.80969	20.24373
3.229167	50.89162	20.24350
3.237500	50.97632	20.24323
3.245834	51.05257	20.24298
3.254166	51.13610	20.24274
3.262500	51.21797	20.24252
3.270833	51.29744	20.24233
3.279167	51.38067	20.24212
3.287500	51.46228	20.24192
3.295833	51.54311	20.24175
3.304166	51.62344	20.24159
3.312500	51.70444	20.24138
3.320834	51.78604	20.24119
3.329167	51.86840	20.24101
3.337500	51.94301	20.24082
3.345833	52.03079	20.24062
3.354167	52.11121	20.24041
3.362500	52.19376	20.24019
3.370834	52.27104	20.23997
3.379166	52.35231	20.23976
3.387500	52.43296	20.23953
3.395833	52.51546	20.23932
3.404167	52.59436	20.23911
3.412500	52.67157	20.23890
3.420833	52.75592	20.23868
3.429166	52.83664	20.23847
3.437500	52.91280	20.23824
3.445834	52.99510	20.23802
3.454167	53.07768	20.23783
3.462500	53.15863	20.23762
3.470833	53.23578	20.23740
3.479167	53.32074	20.23717
3.487500	53.39626	20.23691
3.495834	53.47976	20.23667
3.504166	53.55938	20.23646
3.512500	53.63854	20.23625
3.520833	53.72022	20.23604
3.529167	53.80154	20.23580
3.537500	53.88099	20.23553
3.545833	53.96430	20.23526
3.554166	54.04234	20.23502
3.562500	54.12269	20.23479
3.570834	54.19938	20.23455
3.579167	54.28448	20.23428
3.587500	54.36132	20.23397
3.595833	54.44070	20.23366
3.604167	54.52449	20.23338
3.612500	54.59959	20.23310
3.620834	54.68209	20.23283
3.629166	54.76496	20.23256
3.637500	54.84119	20.23228
3.645833	54.92235	20.23202
3.654167	55.00465	20.23178
3.662500	55.08120	20.23156
3.670833	55.16147	20.23136
3.679166	55.24502	20.23115
3.687500	55.32302	20.23096
3.695834	55.40106	20.23079
3.704167	55.48187	20.23062
3.712500	55.56294	20.23045
3.720833	55.63989	20.23027
3.729167	55.72268	20.23006
3.737500	55.80504	20.22983
3.745834	55.88153	20.22960
3.754166	55.96465	20.22937
3.762500	56.04214	20.22914
3.770833	56.12474	20.22888
3.779167	56.19932	20.22862
3.787500	56.27883	20.22837
3.795833	56.36048	20.22813
3.804166	56.44074	20.22788
3.812500	56.52096	20.22764
3.820834	56.60000	20.22740
3.829167	56.68110	20.22717
3.837500	56.76314	20.22692
3.845833	56.84243	20.22667
3.854167	56.91905	20.22645
3.862500	57.00179	20.22618
3.870834	57.07938	20.22591
3.879166	57.16009	20.22564
3.887500	57.24199	20.22539
3.895833	57.32060	20.22514
3.904167	57.40366	20.22487
3.912500	57.48295	20.22459
3.920833	57.56418	20.22431
3.929166	57.64288	20.22401
3.937500	57.72219	20.22368
3.945834	57.80157	20.22339
3.954167	57.88052	20.22309
3.962500	57.96428	20.22276
3.970833	58.03830	20.22246
3.979167	58.12125	20.22217
3.987500	58.19985	20.22188
3.995834	58.27930	20.22162
4.004166	58.35916	20.22136
4.012500	58.43844	20.22109
4.020834	58.52005	20.22085
4.029167	58.59970	20.22061
4.037500	58.67857	20.22039
4.045833	58.75926	20.22021
4.054167	58.83813	20.21997
4.062500	58.91950	20.21972
4.070833	58.99930	20.21948
4.079167	59.07842	20.21922
4.087500	59.16188	20.21894
4.095833	59.23762	20.21862
4.104166	59.32018	20.21835
4.112500	59.40188	20.21807
4.120834	59.48066	20.21774
4.129166	59.55948	20.21736
4.137500	59.64212	20.21701
4.145834	59.72330	20.21668
4.154167	59.80005	20.21635
4.162500	59.87856	20.21603
4.170833	59.96226	20.21576
4.179167	60.04406	20.21554
4.187500	60.12305	20.21527
4.195833	60.20464	20.21498
4.204167	60.28579	20.21470
4.212500	60.36286	20.21445
4.220833	60.44300	20.21422
4.229166	60.52256	20.21399
4.237500	60.60525	20.21377
4.245834	60.68476	20.21352
4.254166	60.76618	20.21324
4.262500	60.84797	20.21294
4.270834	60.92854	20.21264
4.279167	61.00810	20.21239
4.287500	61.08730	20.21216
4.295833	61.16926	20.21190
4.304167	61.24976	20.21164
4.312500	61.33100	20.21137
4.320833	61.41094	20.21107
4.329167	61.49170	20.21079
4.337500	61.57304	20.21051
4.345833	61.65716	20.21025
4.354166	61.73781	20.20997
4.362500	61.81634	20.20967
4.370834	61.89953	20.20939
4.379166	61.97824	20.20911
4.387500	62.05776	20.20878
4.395834	62.13805	20.20847
4.404167	62.22081	20.20815
4.412500	62.30206	20.20779
4.420833	62.38558	20.20744
4.429167	62.46516	20.20706
4.437500	62.54596	20.20667
4.445833	62.62518	20.20633
4.454167	62.71150	20.20598
4.462500	62.78836	20.20564
4.470833	62.87016	20.20530
4.479166	62.94993	20.20494
4.487500	63.03129	20.20458
4.495834	63.11662	20.20428
4.504166	63.19524	20.20396
4.512500	63.27750	20.20366
4.520834	63.35575	20.20339
4.529167	63.43687	20.20308
4.537500	63.51611	20.20277
4.545833	63.59920	20.20248
4.554167	63.68162	20.20222
4.562500	63.76153	20.20195
4.570833	63.84259	20.20168
4.579167	63.92537	20.20139
4.587500	64.00628	20.20112
4.595833	64.08657	20.20085
4.604166	64.17224	20.20059
4.612500	64.25451	20.20032
4.620834	64.33332	20.20002
4.629166	64.41352	20.19969
4.637500	64.49665	20.19935
4.645834	64.57441	20.19902
4.654167	64.65578	20.19870
4.662500	64.73963	20.19839
4.670833	64.82039	20.19805
4.679167	64.90194	20.19773
4.687500	64.98258	20.19739
4.695833	65.06610	20.19702
4.704167	65.14541	20.19665
4.712500	65.23064	20.19627
4.720833	65.31182	20.19587
4.729166	65.39472	20.19549
4.737500	65.47622	20.19511
4.745834	65.55751	20.19470
4.754166	65.63652	20.19432
4.762500	65.71999	20.19396
4.770834	65.79998	20.19359
4.779167	65.88235	20.19322
4.787500	65.96184	20.19288
4.795833	66.04462	20.19256
4.804167	66.12446	20.19228
4.812500	66.20829	20.19198
4.820833	66.28942	20.19167
4.829167	66.37179	20.19136
4.837500	66.45686	20.19103
4.845833	66.53734	20.19068
4.854166	66.62182	20.19037
4.862500	66.70184	20.19007
4.870834	66.78662	20.18972
4.879166	66.86662	20.18937
4.887500	66.94811	20.18904
4.895834	67.03019	20.18870
4.904167	67.11443	20.18837
4.912500	67.19432	20.18805
4.920833	67.27588	20.18774
4.929167	67.35958	20.18742
4.937500	67.44507	20.18709
4.945833	67.52362	20.18676
4.954167	67.60686	20.18644
4.962500	67.68889	20.18609
4.970833	67.77216	20.18570
4.979166	67.85414	20.18530
4.987500	67.93442	20.18489
4.995834	68.01776	20.18447
5.004166	68.10018	20.18405
5.012500	68.18526	20.18362
5.020834	68.26604	20.18317
5.029167	68.35006	20.18274
5.037500	68.42803	20.18232
5.045833	68.51366	20.18190
5.054167	68.59762	20.18150
5.062500	68.67755	20.18115
5.070833	68.76335	20.18083
5.079167	68.84613	20.18050
5.087500	68.92398	20.18014
5.095833	69.00831	20.17980
5.104166	69.09403	20.17949
5.112500	69.17975	20.17915
5.120834	69.25751	20.17882
5.129166	69.34016	20.17851
5.137500	69.42590	20.17819
5.145834	69.50679	20.17784
5.154167	69.58859	20.17746
5.162500	69.67226	20.17709
5.170833	69.75693	20.17674
5.179167	69.83811	20.17639
5.187500	69.92082	20.17601
5.195833	70.00278	20.17560
5.204167	70.08412	20.17520
5.212500	70.16988	20.17480
5.220833	70.25266	20.17438
5.229166	70.33368	20.17397
5.237500	70.41572	20.17356
5.245834	70.50056	20.17314
5.254166	70.57666	20.17273
5.262500	70.66394	20.17231
5.270834	70.75105	20.17189
5.279168	70.83364	20.17151
5.287500	70.91430	20.17112
5.295832	70.99756	20.17074
5.304168	71.08226	20.17038
5.312500	71.16359	20.17003
5.320832	71.24702	20.16966
5.329168	71.33099	20.16929
5.337500	71.41478	20.16892
5.345832	71.49490	20.16854
5.354166	71.58007	20.16818
5.362500	71.66210	20.16783
5.370834	71.74188	20.16746
5.379166	71.82840	20.16706
5.387500	71.91340	20.16668
5.395834	71.99624	20.16628
5.404168	72.08000	20.16588
5.412500	72.15994	20.16549
5.420832	72.24507	20.16510
5.429168	72.32776	20.16470
5.437500	72.41039	20.16428
5.445832	72.49410	20.16382
5.454168	72.57538	20.16338
5.462500	72.65925	20.16299
5.470832	72.74020	20.16258
5.479166	72.82634	20.16215
5.487500	72.90594	20.16171
5.495834	72.98870	20.16127
5.504166	73.07340	20.16084
5.512500	73.15938	20.16044
5.520834	73.24308	20.16002
5.529168	73.32424	20.15961
5.537500	73.40925	20.15920
5.545832	73.49475	20.15875
5.554168	73.57574	20.15831
5.562500	73.66032	20.15789
5.570832	73.74275	20.15748
5.579168	73.82906	20.15706
5.587500	73.91102	20.15667
5.595832	73.99272	20.15627
5.604166	74.07747	20.15589
5.612500	74.16303	20.15552
5.620834	74.24372	20.15511
5.629166	74.32509	20.15467
5.637500	74.40658	20.15422
5.645834	74.49578	20.15378
5.654168	74.57820	20.15338
5.662500	74.65748	20.15298
5.670832	74.74475	20.15254
5.679168	74.83018	20.15209
5.687500	74.91384	20.15165
5.695832	74.99518	20.15121
5.704168	75.08074	20.15080
5.712500	75.16108	20.15038
5.720832	75.24421	20.14996
5.729166	75.32960	20.14953
5.737500	75.41474	20.14907
5.745834	75.49450	20.14863
5.754166	75.57890	20.14821
5.762500	75.66188	20.14776
5.770834	75.74739	20.14727
5.779168	75.82912	20.14677
5.787500	75.91430	20.14626
5.795832	75.99576	20.14572
5.804168	76.07871	20.14517
5.812500	76.16418	20.14464
5.820832	76.24772	20.14413
5.829168	76.33076	20.14368
5.837500	76.41434	20.14321
5.845832	76.49839	20.14271
5.854166	76.58048	20.14225
5.862500	76.66382	20.14178
5.870834	76.74900	20.14133
5.879166	76.83280	20.14092
